P (MPa)		T (K)		r (km)		rho (kg m-3)	VP (km s-1)	VS (km s-1)	QS/gamma	
0.00000e+00	9.40000e+01	2.57470e+03	9.32490e+02	3.87821e+00	1.96165e+00	1.72556e+05
9.50508e-01	1.05116e+02	2.57395e+03	9.32490e+02	3.87960e+00	1.96250e+00	4.53415e+04
1.90102e+00	1.17547e+02	2.57319e+03	9.32563e+02	3.88123e+00	1.96347e+00	1.37227e+04
2.85152e+00	1.31447e+02	2.57244e+03	9.32635e+02	3.88319e+00	1.96461e+00	4.71278e+03
3.80203e+00	1.46992e+02	2.57169e+03	9.32705e+02	3.88560e+00	1.96598e+00	1.81217e+03
4.75254e+00	1.64374e+02	2.57094e+03	9.32775e+02	3.88863e+00	1.96766e+00	7.70928e+02
5.70305e+00	1.83812e+02	2.57019e+03	9.32845e+02	3.89250e+00	1.96977e+00	3.58990e+02
6.65356e+00	2.05549e+02	2.56943e+03	9.32913e+02	3.89747e+00	1.97243e+00	1.81239e+02
7.60407e+00	2.29857e+02	2.56868e+03	9.32980e+02	3.90380e+00	1.97578e+00	9.83588e+01
8.55457e+00	2.57038e+02	2.56793e+03	9.33047e+02	3.91159e+00	1.97988e+00	5.69434e+01
9.50508e+00	2.57070e+02	2.56718e+03	9.33112e+02	3.91219e+00	1.98033e+00	5.69113e+01
1.04556e+01	2.57102e+02	2.56643e+03	9.33177e+02	3.91278e+00	1.98077e+00	5.68788e+01
1.14061e+01	2.57134e+02	2.56568e+03	9.33240e+02	3.91337e+00	1.98122e+00	5.68460e+01
1.23566e+01	2.57166e+02	2.56493e+03	9.33303e+02	3.91396e+00	1.98167e+00	5.68129e+01
1.33071e+01	2.57199e+02	2.56418e+03	9.33364e+02	3.91455e+00	1.98211e+00	5.67795e+01
1.42576e+01	2.57232e+02	2.56343e+03	9.33424e+02	3.91513e+00	1.98256e+00	5.67458e+01
1.52081e+01	2.57265e+02	2.56268e+03	9.33483e+02	3.91572e+00	1.98300e+00	5.67117e+01
1.61586e+01	2.57299e+02	2.56193e+03	9.33541e+02	3.91630e+00	1.98345e+00	5.66773e+01
1.71091e+01	2.57333e+02	2.56118e+03	9.33598e+02	3.91689e+00	1.98389e+00	5.66426e+01
1.80597e+01	2.57368e+02	2.56043e+03	9.33653e+02	3.91747e+00	1.98433e+00	5.66076e+01
1.90102e+01	2.57403e+02	2.55968e+03	9.33707e+02	3.91805e+00	1.98477e+00	5.65722e+01
1.99607e+01	2.57438e+02	2.55893e+03	9.33760e+02	3.91863e+00	1.98522e+00	5.65365e+01
2.09112e+01	2.57474e+02	2.55818e+03	9.33811e+02	3.91921e+00	1.98566e+00	5.65004e+01
2.18617e+01	2.57509e+02	2.55743e+03	9.33861e+02	3.91979e+00	1.98610e+00	5.64640e+01
2.28122e+01	2.57546e+02	2.55668e+03	9.33909e+02	3.92037e+00	1.98654e+00	5.64273e+01
2.37627e+01	2.57583e+02	2.55593e+03	9.33956e+02	3.92095e+00	1.98698e+00	5.63902e+01
2.47132e+01	2.57620e+02	2.55518e+03	9.34001e+02	3.92152e+00	1.98741e+00	5.63528e+01
2.56637e+01	2.57657e+02	2.55443e+03	9.34044e+02	3.92210e+00	1.98785e+00	5.63150e+01
2.66142e+01	2.57695e+02	2.55369e+03	9.34086e+02	3.92267e+00	1.98829e+00	5.62769e+01
2.75647e+01	2.57733e+02	2.55294e+03	9.34126e+02	3.92324e+00	1.98873e+00	5.62384e+01
2.85152e+01	2.57772e+02	2.55219e+03	9.34165e+02	3.92381e+00	1.98916e+00	5.61995e+01
2.94658e+01	2.57811e+02	2.55144e+03	9.34201e+02	3.92439e+00	1.98960e+00	5.61603e+01
3.04163e+01	2.57850e+02	2.55069e+03	9.34235e+02	3.92496e+00	1.99003e+00	5.61207e+01
3.13668e+01	2.57890e+02	2.54995e+03	9.34268e+02	3.92552e+00	1.99047e+00	5.60807e+01
3.23173e+01	2.57931e+02	2.54920e+03	9.34299e+02	3.92609e+00	1.99090e+00	5.60403e+01
3.32678e+01	2.57971e+02	2.54845e+03	9.34327e+02	3.92666e+00	1.99134e+00	5.59996e+01
3.42183e+01	2.58012e+02	2.54770e+03	9.34353e+02	3.92723e+00	1.99177e+00	5.59585e+01
3.51688e+01	2.58054e+02	2.54696e+03	9.34377e+02	3.92779e+00	1.99220e+00	5.59170e+01
3.61193e+01	2.58096e+02	2.54621e+03	9.34399e+02	3.92836e+00	1.99263e+00	5.58751e+01
3.70698e+01	2.58138e+02	2.54546e+03	9.34419e+02	3.92892e+00	1.99306e+00	5.58329e+01
3.80203e+01	2.58181e+02	2.54472e+03	9.34436e+02	3.92948e+00	1.99350e+00	5.57902e+01
3.89708e+01	2.58225e+02	2.54397e+03	9.34450e+02	3.93005e+00	1.99393e+00	5.57471e+01
3.99213e+01	2.58268e+02	2.54322e+03	9.34462e+02	3.93061e+00	1.99436e+00	5.57037e+01
4.08719e+01	2.58313e+02	2.54248e+03	9.34471e+02	3.93117e+00	1.99478e+00	5.56598e+01
4.18224e+01	2.58357e+02	2.54173e+03	9.34478e+02	3.93173e+00	1.99521e+00	5.56156e+01
4.27729e+01	2.58403e+02	2.54099e+03	9.34482e+02	3.93229e+00	1.99564e+00	5.55709e+01
4.37234e+01	2.58448e+02	2.54024e+03	9.34482e+02	3.93284e+00	1.99607e+00	5.55258e+01
4.46739e+01	2.58494e+02	2.53949e+03	9.34480e+02	3.93340e+00	1.99650e+00	5.54803e+01
4.56244e+01	2.58541e+02	2.53875e+03	9.34475e+02	3.93396e+00	1.99692e+00	5.54343e+01
4.65749e+01	2.58588e+02	2.53800e+03	9.34467e+02	3.93451e+00	1.99735e+00	5.53880e+01
4.75254e+01	2.58636e+02	2.53726e+03	9.34455e+02	3.93507e+00	1.99778e+00	5.53412e+01
4.84759e+01	2.58684e+02	2.53651e+03	9.34440e+02	3.93562e+00	1.99820e+00	5.52940e+01
4.94264e+01	2.58732e+02	2.53577e+03	9.34422e+02	3.93617e+00	1.99863e+00	5.52464e+01
5.03769e+01	2.58781e+02	2.53502e+03	9.34400e+02	3.93673e+00	1.99905e+00	5.51983e+01
5.13274e+01	2.58831e+02	2.53428e+03	9.34375e+02	3.93728e+00	1.99948e+00	5.51498e+01
5.22780e+01	2.58881e+02	2.53353e+03	9.34345e+02	3.93783e+00	1.99990e+00	5.51008e+01
5.32285e+01	2.58932e+02	2.53279e+03	9.34312e+02	3.93838e+00	2.00032e+00	5.50514e+01
5.41790e+01	2.58983e+02	2.53204e+03	9.34275e+02	3.93893e+00	2.00075e+00	5.50015e+01
5.51295e+01	2.59034e+02	2.53130e+03	9.34234e+02	3.93948e+00	2.00117e+00	5.49512e+01
5.60800e+01	2.59087e+02	2.53055e+03	9.34189e+02	3.94003e+00	2.00159e+00	5.49004e+01
5.70305e+01	2.59139e+02	2.52981e+03	9.34140e+02	3.94057e+00	2.00201e+00	5.48492e+01
5.79810e+01	2.59193e+02	2.52906e+03	9.34086e+02	3.94112e+00	2.00243e+00	5.47975e+01
5.89315e+01	2.59247e+02	2.52832e+03	9.34028e+02	3.94167e+00	2.00285e+00	5.47454e+01
5.98820e+01	2.59301e+02	2.52757e+03	9.33965e+02	3.94221e+00	2.00327e+00	5.46927e+01
6.08325e+01	2.59356e+02	2.52683e+03	9.33898e+02	3.94276e+00	2.00369e+00	5.46396e+01
6.17830e+01	2.59412e+02	2.52609e+03	9.33826e+02	3.94330e+00	2.00411e+00	5.45860e+01
6.27335e+01	2.59468e+02	2.52534e+03	9.33749e+02	3.94384e+00	2.00453e+00	5.45319e+01
6.36840e+01	2.59524e+02	2.52460e+03	9.33667e+02	3.94439e+00	2.00495e+00	5.44774e+01
6.46346e+01	2.59582e+02	2.52385e+03	9.33579e+02	3.94493e+00	2.00537e+00	5.44223e+01
6.55851e+01	2.59640e+02	2.52311e+03	9.33487e+02	3.94547e+00	2.00579e+00	5.43668e+01
6.65356e+01	2.59698e+02	2.52237e+03	9.33389e+02	3.94601e+00	2.00620e+00	5.43108e+01
6.74861e+01	2.59757e+02	2.52162e+03	9.33286e+02	3.94655e+00	2.00662e+00	5.42542e+01
6.84366e+01	2.59817e+02	2.52088e+03	9.33178e+02	3.94709e+00	2.00704e+00	5.41972e+01
6.93871e+01	2.59877e+02	2.52014e+03	9.33063e+02	3.94763e+00	2.00745e+00	5.41397e+01
7.03376e+01	2.59938e+02	2.51939e+03	9.32943e+02	3.94817e+00	2.00787e+00	5.40816e+01
7.12881e+01	2.60000e+02	2.51865e+03	9.32817e+02	3.94871e+00	2.00829e+00	5.40230e+01
7.22386e+01	2.60062e+02	2.51790e+03	9.32686e+02	3.94924e+00	2.00870e+00	5.39640e+01
7.31891e+01	2.60125e+02	2.51716e+03	9.32548e+02	3.94978e+00	2.00912e+00	5.39043e+01
7.41396e+01	2.60189e+02	2.51642e+03	9.32404e+02	3.95032e+00	2.00953e+00	5.38442e+01
7.50901e+01	2.60253e+02	2.51567e+03	9.32254e+02	3.95085e+00	2.00994e+00	5.37835e+01
7.60407e+01	2.60318e+02	2.51493e+03	9.32098e+02	3.95139e+00	2.01036e+00	5.37223e+01
7.69912e+01	2.60384e+02	2.51419e+03	9.31935e+02	3.95192e+00	2.01077e+00	5.36606e+01
7.79417e+01	2.60450e+02	2.51344e+03	9.31767e+02	3.95245e+00	2.01119e+00	5.35983e+01
7.88922e+01	2.60517e+02	2.51270e+03	9.31592e+02	3.95299e+00	2.01160e+00	5.35355e+01
7.98427e+01	2.60585e+02	2.51196e+03	9.31410e+02	3.95352e+00	2.01201e+00	5.34722e+01
8.07932e+01	2.60653e+02	2.51121e+03	9.31222e+02	3.95405e+00	2.01242e+00	5.34082e+01
8.17437e+01	2.60722e+02	2.51047e+03	9.31028e+02	3.95458e+00	2.01283e+00	5.33438e+01
8.26942e+01	2.60792e+02	2.50973e+03	9.30827e+02	3.95512e+00	2.01325e+00	5.32787e+01
8.36447e+01	2.60862e+02	2.50898e+03	9.30620e+02	3.95565e+00	2.01366e+00	5.32132e+01
8.45952e+01	2.60934e+02	2.50824e+03	9.30407e+02	3.95618e+00	2.01407e+00	5.31470e+01
8.55457e+01	2.61006e+02	2.50749e+03	9.30188e+02	3.95671e+00	2.01448e+00	5.30803e+01
8.64962e+01	2.61079e+02	2.50675e+03	9.29962e+02	3.95724e+00	2.01489e+00	5.30130e+01
8.74468e+01	2.61152e+02	2.50601e+03	9.29730e+02	3.95776e+00	2.01530e+00	5.29451e+01
8.83973e+01	2.61226e+02	2.50526e+03	9.29492e+02	3.95829e+00	2.01571e+00	5.28766e+01
8.93478e+01	2.61301e+02	2.50452e+03	9.29248e+02	3.95882e+00	2.01612e+00	5.28076e+01
9.02983e+01	2.61377e+02	2.50377e+03	9.28998e+02	3.95935e+00	2.01653e+00	5.27379e+01
9.12488e+01	2.61454e+02	2.50303e+03	9.28743e+02	3.95988e+00	2.01694e+00	5.26677e+01
9.21993e+01	2.61531e+02	2.50229e+03	9.28482e+02	3.96040e+00	2.01734e+00	5.25969e+01
9.31498e+01	2.64965e+02	2.50154e+03	9.28216e+02	3.96187e+00	2.01823e+00	4.95904e+01
9.41003e+01	2.65000e+02	2.50080e+03	9.27945e+02	3.96239e+00	2.01863e+00	4.95608e+01
9.78912e+01	2.65032e+02	2.49816e+03	1.04597e+03	1.53395e+00	0.00000e+00	0.00000e+00
1.01682e+02	2.65066e+02	2.49553e+03	1.04757e+03	1.54139e+00	0.00000e+00	0.00000e+00
1.05473e+02	2.65103e+02	2.49291e+03	1.04916e+03	1.54885e+00	0.00000e+00	0.00000e+00
1.09264e+02	2.65142e+02	2.49029e+03	1.05073e+03	1.55632e+00	0.00000e+00	0.00000e+00
1.13055e+02	2.65183e+02	2.48768e+03	1.05229e+03	1.56382e+00	0.00000e+00	0.00000e+00
1.16846e+02	2.65226e+02	2.48507e+03	1.05383e+03	1.57133e+00	0.00000e+00	0.00000e+00
1.20637e+02	2.65272e+02	2.48246e+03	1.05536e+03	1.57886e+00	0.00000e+00	0.00000e+00
1.24427e+02	2.65319e+02	2.47987e+03	1.05687e+03	1.58641e+00	0.00000e+00	0.00000e+00
1.28218e+02	2.65368e+02	2.47727e+03	1.05837e+03	1.59398e+00	0.00000e+00	0.00000e+00
1.32009e+02	2.65419e+02	2.47468e+03	1.05986e+03	1.60155e+00	0.00000e+00	0.00000e+00
1.35800e+02	2.65472e+02	2.47210e+03	1.06133e+03	1.60914e+00	0.00000e+00	0.00000e+00
1.39591e+02	2.65526e+02	2.46952e+03	1.06279e+03	1.61672e+00	0.00000e+00	0.00000e+00
1.43382e+02	2.65582e+02	2.46694e+03	1.06423e+03	1.62429e+00	0.00000e+00	0.00000e+00
1.47173e+02	2.65640e+02	2.46437e+03	1.06566e+03	1.63186e+00	0.00000e+00	0.00000e+00
1.50964e+02	2.65699e+02	2.46180e+03	1.06708e+03	1.63942e+00	0.00000e+00	0.00000e+00
1.54755e+02	2.65760e+02	2.45924e+03	1.06848e+03	1.64696e+00	0.00000e+00	0.00000e+00
1.58545e+02	2.65823e+02	2.45668e+03	1.06987e+03	1.65448e+00	0.00000e+00	0.00000e+00
1.62336e+02	2.65886e+02	2.45413e+03	1.07125e+03	1.66199e+00	0.00000e+00	0.00000e+00
1.66127e+02	2.65951e+02	2.45158e+03	1.07262e+03	1.66948e+00	0.00000e+00	0.00000e+00
1.69918e+02	2.66018e+02	2.44904e+03	1.07397e+03	1.67695e+00	0.00000e+00	0.00000e+00
1.73709e+02	2.66086e+02	2.44649e+03	1.07531e+03	1.68440e+00	0.00000e+00	0.00000e+00
1.77500e+02	2.66155e+02	2.44396e+03	1.07664e+03	1.69183e+00	0.00000e+00	0.00000e+00
1.81291e+02	2.66225e+02	2.44143e+03	1.07796e+03	1.69923e+00	0.00000e+00	0.00000e+00
1.85082e+02	2.66297e+02	2.43890e+03	1.07927e+03	1.70660e+00	0.00000e+00	0.00000e+00
1.88873e+02	2.66369e+02	2.43637e+03	1.08056e+03	1.71395e+00	0.00000e+00	0.00000e+00
1.92663e+02	2.66443e+02	2.43385e+03	1.08185e+03	1.72127e+00	0.00000e+00	0.00000e+00
1.96454e+02	2.66518e+02	2.43134e+03	1.08312e+03	1.72856e+00	0.00000e+00	0.00000e+00
2.00245e+02	2.66594e+02	2.42883e+03	1.08439e+03	1.73583e+00	0.00000e+00	0.00000e+00
2.04036e+02	2.66671e+02	2.42632e+03	1.08564e+03	1.74306e+00	0.00000e+00	0.00000e+00
2.07827e+02	2.66749e+02	2.42382e+03	1.08688e+03	1.75027e+00	0.00000e+00	0.00000e+00
2.11618e+02	2.66828e+02	2.42132e+03	1.08811e+03	1.75744e+00	0.00000e+00	0.00000e+00
2.15409e+02	2.66908e+02	2.41882e+03	1.08934e+03	1.76457e+00	0.00000e+00	0.00000e+00
2.19200e+02	2.66989e+02	2.41633e+03	1.09055e+03	1.77165e+00	0.00000e+00	0.00000e+00
2.22991e+02	2.67071e+02	2.41384e+03	1.09175e+03	1.77870e+00	0.00000e+00	0.00000e+00
2.26781e+02	2.67153e+02	2.41135e+03	1.09294e+03	1.78570e+00	0.00000e+00	0.00000e+00
2.30572e+02	2.67236e+02	2.40887e+03	1.09413e+03	1.79265e+00	0.00000e+00	0.00000e+00
2.34363e+02	2.67320e+02	2.40640e+03	1.09530e+03	1.79955e+00	0.00000e+00	0.00000e+00
2.38154e+02	2.67405e+02	2.40392e+03	1.09647e+03	1.80641e+00	0.00000e+00	0.00000e+00
2.41945e+02	2.67491e+02	2.40145e+03	1.09763e+03	1.81322e+00	0.00000e+00	0.00000e+00
2.45736e+02	2.67577e+02	2.39899e+03	1.09878e+03	1.81998e+00	0.00000e+00	0.00000e+00
2.49527e+02	2.67664e+02	2.39652e+03	1.09992e+03	1.82671e+00	0.00000e+00	0.00000e+00
2.53318e+02	2.67752e+02	2.39407e+03	1.10105e+03	1.83339e+00	0.00000e+00	0.00000e+00
2.57109e+02	2.67840e+02	2.39161e+03	1.10217e+03	1.84004e+00	0.00000e+00	0.00000e+00
2.60899e+02	2.67929e+02	2.38916e+03	1.10329e+03	1.84664e+00	0.00000e+00	0.00000e+00
2.64690e+02	2.68019e+02	2.38671e+03	1.10440e+03	1.85321e+00	0.00000e+00	0.00000e+00
2.68481e+02	2.68109e+02	2.38426e+03	1.10550e+03	1.85975e+00	0.00000e+00	0.00000e+00
2.72272e+02	2.68200e+02	2.38182e+03	1.10659e+03	1.86625e+00	0.00000e+00	0.00000e+00
2.76063e+02	2.68291e+02	2.37939e+03	1.10767e+03	1.87271e+00	0.00000e+00	0.00000e+00
2.79854e+02	2.68383e+02	2.37695e+03	1.10875e+03	1.87915e+00	0.00000e+00	0.00000e+00
2.83645e+02	2.68476e+02	2.37452e+03	1.10982e+03	1.88555e+00	0.00000e+00	0.00000e+00
2.87436e+02	2.68569e+02	2.37209e+03	1.11088e+03	1.89192e+00	0.00000e+00	0.00000e+00
2.91226e+02	2.68662e+02	2.36967e+03	1.11194e+03	1.89826e+00	0.00000e+00	0.00000e+00
2.95017e+02	2.68756e+02	2.36725e+03	1.11299e+03	1.90457e+00	0.00000e+00	0.00000e+00
2.98808e+02	2.68851e+02	2.36483e+03	1.11403e+03	1.91086e+00	0.00000e+00	0.00000e+00
3.02599e+02	2.68946e+02	2.36242e+03	1.11507e+03	1.91711e+00	0.00000e+00	0.00000e+00
3.06390e+02	2.69041e+02	2.36000e+03	1.11609e+03	1.92333e+00	0.00000e+00	0.00000e+00
3.10181e+02	2.69137e+02	2.35760e+03	1.11712e+03	1.92952e+00	0.00000e+00	0.00000e+00
3.13972e+02	2.69234e+02	2.35519e+03	1.11813e+03	1.93568e+00	0.00000e+00	0.00000e+00
3.17763e+02	2.69331e+02	2.35279e+03	1.11914e+03	1.94180e+00	0.00000e+00	0.00000e+00
3.21554e+02	2.69428e+02	2.35039e+03	1.12014e+03	1.94788e+00	0.00000e+00	0.00000e+00
3.25344e+02	2.69525e+02	2.34800e+03	1.12114e+03	1.95393e+00	0.00000e+00	0.00000e+00
3.29135e+02	2.69623e+02	2.34561e+03	1.12213e+03	1.95994e+00	0.00000e+00	0.00000e+00
3.32926e+02	2.69722e+02	2.34322e+03	1.12311e+03	1.96592e+00	0.00000e+00	0.00000e+00
3.36717e+02	2.69820e+02	2.34083e+03	1.12409e+03	1.97185e+00	0.00000e+00	0.00000e+00
3.40508e+02	2.69920e+02	2.33845e+03	1.12506e+03	1.97775e+00	0.00000e+00	0.00000e+00
3.44299e+02	2.70019e+02	2.33607e+03	1.12603e+03	1.98360e+00	0.00000e+00	0.00000e+00
3.48090e+02	2.70119e+02	2.33369e+03	1.12699e+03	1.98942e+00	0.00000e+00	0.00000e+00
3.51881e+02	2.70219e+02	2.33132e+03	1.12794e+03	1.99520e+00	0.00000e+00	0.00000e+00
3.55672e+02	2.70319e+02	2.32895e+03	1.12889e+03	2.00094e+00	0.00000e+00	0.00000e+00
3.59462e+02	2.70420e+02	2.32658e+03	1.12984e+03	2.00664e+00	0.00000e+00	0.00000e+00
3.63253e+02	2.70521e+02	2.32422e+03	1.13078e+03	2.01230e+00	0.00000e+00	0.00000e+00
3.67044e+02	2.70622e+02	2.32186e+03	1.13171e+03	2.01792e+00	0.00000e+00	0.00000e+00
3.70835e+02	2.70724e+02	2.31950e+03	1.13264e+03	2.02351e+00	0.00000e+00	0.00000e+00
3.74626e+02	2.70825e+02	2.31715e+03	1.13356e+03	2.02906e+00	0.00000e+00	0.00000e+00
3.78417e+02	2.70928e+02	2.31480e+03	1.13448e+03	2.03457e+00	0.00000e+00	0.00000e+00
3.82208e+02	2.71030e+02	2.31245e+03	1.13539e+03	2.04005e+00	0.00000e+00	0.00000e+00
3.85999e+02	2.71132e+02	2.31010e+03	1.13630e+03	2.04549e+00	0.00000e+00	0.00000e+00
3.89790e+02	2.71235e+02	2.30776e+03	1.13721e+03	2.05090e+00	0.00000e+00	0.00000e+00
3.93580e+02	2.71338e+02	2.30542e+03	1.13811e+03	2.05629e+00	0.00000e+00	0.00000e+00
3.97371e+02	2.71442e+02	2.30308e+03	1.13900e+03	2.06165e+00	0.00000e+00	0.00000e+00
4.01162e+02	2.71545e+02	2.30075e+03	1.13989e+03	2.06699e+00	0.00000e+00	0.00000e+00
4.04953e+02	2.71649e+02	2.29841e+03	1.14077e+03	2.07232e+00	0.00000e+00	0.00000e+00
4.08744e+02	2.71753e+02	2.29609e+03	1.14165e+03	2.07763e+00	0.00000e+00	0.00000e+00
4.12535e+02	2.71857e+02	2.29376e+03	1.14253e+03	2.08292e+00	0.00000e+00	0.00000e+00
4.16326e+02	2.71962e+02	2.29144e+03	1.14340e+03	2.08820e+00	0.00000e+00	0.00000e+00
4.20117e+02	2.72066e+02	2.28912e+03	1.14427e+03	2.09347e+00	0.00000e+00	0.00000e+00
4.23908e+02	2.72171e+02	2.28680e+03	1.14513e+03	2.09872e+00	0.00000e+00	0.00000e+00
4.27698e+02	2.72276e+02	2.28449e+03	1.14599e+03	2.10395e+00	0.00000e+00	0.00000e+00
4.31489e+02	2.72381e+02	2.28218e+03	1.14684e+03	2.10916e+00	0.00000e+00	0.00000e+00
4.35280e+02	2.72487e+02	2.27987e+03	1.14769e+03	2.11436e+00	0.00000e+00	0.00000e+00
4.39071e+02	2.72592e+02	2.27756e+03	1.14854e+03	2.11954e+00	0.00000e+00	0.00000e+00
4.42862e+02	2.72698e+02	2.27526e+03	1.14938e+03	2.12471e+00	0.00000e+00	0.00000e+00
4.46653e+02	2.72804e+02	2.27296e+03	1.15022e+03	2.12986e+00	0.00000e+00	0.00000e+00
4.50444e+02	2.72910e+02	2.27066e+03	1.15105e+03	2.13499e+00	0.00000e+00	0.00000e+00
4.54235e+02	2.73017e+02	2.26836e+03	1.15188e+03	2.14011e+00	0.00000e+00	0.00000e+00
4.58026e+02	2.73123e+02	2.26607e+03	1.15271e+03	2.14521e+00	0.00000e+00	0.00000e+00
4.61816e+02	2.73230e+02	2.26378e+03	1.15353e+03	2.15030e+00	0.00000e+00	0.00000e+00
4.65607e+02	2.73337e+02	2.26150e+03	1.15435e+03	2.15537e+00	0.00000e+00	0.00000e+00
4.69398e+02	2.73444e+02	2.25921e+03	1.15516e+03	2.16043e+00	0.00000e+00	0.00000e+00
4.73189e+02	2.73551e+02	2.25693e+03	1.15597e+03	2.16548e+00	0.00000e+00	0.00000e+00
4.76980e+02	2.73659e+02	2.25465e+03	1.15678e+03	2.17051e+00	0.00000e+00	0.00000e+00
4.80771e+02	2.73766e+02	2.25238e+03	1.15758e+03	2.17553e+00	0.00000e+00	0.00000e+00
4.84562e+02	2.73874e+02	2.25010e+03	1.15838e+03	2.18053e+00	0.00000e+00	0.00000e+00
4.88353e+02	2.73982e+02	2.24783e+03	1.15917e+03	2.18552e+00	0.00000e+00	0.00000e+00
4.92144e+02	2.74090e+02	2.24557e+03	1.15996e+03	2.19050e+00	0.00000e+00	0.00000e+00
4.95934e+02	2.74198e+02	2.24330e+03	1.16075e+03	2.19546e+00	0.00000e+00	0.00000e+00
4.99725e+02	2.74307e+02	2.24104e+03	1.16154e+03	2.20040e+00	0.00000e+00	0.00000e+00
5.03516e+02	2.74415e+02	2.23878e+03	1.16232e+03	2.20532e+00	0.00000e+00	0.00000e+00
5.07307e+02	2.74524e+02	2.23652e+03	1.16309e+03	2.21022e+00	0.00000e+00	0.00000e+00
5.11098e+02	2.74633e+02	2.23427e+03	1.16387e+03	2.21511e+00	0.00000e+00	0.00000e+00
5.14889e+02	2.74742e+02	2.23201e+03	1.16464e+03	2.21999e+00	0.00000e+00	0.00000e+00
5.18680e+02	2.74851e+02	2.22976e+03	1.16541e+03	2.22485e+00	0.00000e+00	0.00000e+00
5.22471e+02	2.74960e+02	2.22752e+03	1.16617e+03	2.22969e+00	0.00000e+00	0.00000e+00
5.26262e+02	2.75069e+02	2.22527e+03	1.16693e+03	2.23452e+00	0.00000e+00	0.00000e+00
5.30052e+02	2.75179e+02	2.22303e+03	1.16769e+03	2.23935e+00	0.00000e+00	0.00000e+00
5.33843e+02	2.75288e+02	2.22079e+03	1.16844e+03	2.24415e+00	0.00000e+00	0.00000e+00
5.37634e+02	2.75398e+02	2.21855e+03	1.16919e+03	2.24895e+00	0.00000e+00	0.00000e+00
5.41425e+02	2.75508e+02	2.21632e+03	1.16994e+03	2.25374e+00	0.00000e+00	0.00000e+00
5.45216e+02	2.75618e+02	2.21409e+03	1.17068e+03	2.25851e+00	0.00000e+00	0.00000e+00
5.49007e+02	2.75728e+02	2.21186e+03	1.17142e+03	2.26327e+00	0.00000e+00	0.00000e+00
5.52798e+02	2.75838e+02	2.20963e+03	1.17216e+03	2.26803e+00	0.00000e+00	0.00000e+00
5.56589e+02	2.75948e+02	2.20741e+03	1.17290e+03	2.27277e+00	0.00000e+00	0.00000e+00
5.60380e+02	2.76059e+02	2.20519e+03	1.17363e+03	2.27750e+00	0.00000e+00	0.00000e+00
5.64170e+02	2.76169e+02	2.20297e+03	1.17436e+03	2.28222e+00	0.00000e+00	0.00000e+00
5.67961e+02	2.76280e+02	2.20075e+03	1.17508e+03	2.28692e+00	0.00000e+00	0.00000e+00
5.71752e+02	2.76390e+02	2.19854e+03	1.17581e+03	2.29162e+00	0.00000e+00	0.00000e+00
5.75543e+02	2.76501e+02	2.19633e+03	1.17653e+03	2.29629e+00	0.00000e+00	0.00000e+00
5.79334e+02	2.76612e+02	2.19412e+03	1.17724e+03	2.30095e+00	0.00000e+00	0.00000e+00
5.83125e+02	2.76723e+02	2.19191e+03	1.17796e+03	2.30560e+00	0.00000e+00	0.00000e+00
5.86916e+02	2.76834e+02	2.18971e+03	1.17867e+03	2.31022e+00	0.00000e+00	0.00000e+00
5.90707e+02	2.76945e+02	2.18751e+03	1.17938e+03	2.31482e+00	0.00000e+00	0.00000e+00
5.94498e+02	2.77056e+02	2.18531e+03	1.18008e+03	2.31939e+00	0.00000e+00	0.00000e+00
5.98288e+02	2.77167e+02	2.18311e+03	1.18078e+03	2.32393e+00	0.00000e+00	0.00000e+00
6.02079e+02	2.77278e+02	2.18092e+03	1.18148e+03	2.32845e+00	0.00000e+00	0.00000e+00
6.05870e+02	2.77390e+02	2.17872e+03	1.18218e+03	2.33294e+00	0.00000e+00	0.00000e+00
6.09661e+02	2.77501e+02	2.17654e+03	1.18288e+03	2.33741e+00	0.00000e+00	0.00000e+00
6.13452e+02	2.77613e+02	2.17435e+03	1.18357e+03	2.34186e+00	0.00000e+00	0.00000e+00
